time (s)	magX	magY	magZ
5944.611714	130.775574	-6.883109	1.527180
5944.615049	132.412033	-7.409118	1.936295
5944.618373	132.996506	-7.876680	2.286968
5944.621706	134.632965	-7.701344	2.111633
5944.625041	135.860321	-7.818234	3.514320
5944.628373	137.321442	-8.344243	3.397430
5944.631736	138.899475	-8.461133	4.157219
5944.635045	140.009933	-9.337814	4.449448
5944.638377	141.763290	-9.571595	4.800117
5944.641707	142.756866	-9.454705	5.443016
5944.645069	144.451782	-10.331385	5.209232
5944.648373	146.146698	-10.740502	7.079483
5944.651705	148.016953	-11.208065	7.137932
5944.655038	149.770309	-11.558737	8.365280
5944.658377	152.283463	-11.850964	9.183517
5944.661705	153.686157	-12.376971	8.832844
5944.665041	155.907074	-12.610755	9.358856
5944.668369	157.426651	-13.019872	10.001759
5944.671704	160.173584	-13.312099	11.755119
5944.675034	162.745178	-14.130334	12.807137
5944.679314	167.303925	-15.416131	13.625366
5944.682681	170.050842	-16.059031	15.086502
5944.685952	172.213333	-16.292810	16.138512
5944.689245	174.843369	-16.877264	17.891876
5944.692129	177.473419	-17.929283	19.703682
5944.695459	180.278793	-18.338400	20.989479
5944.698789	182.908829	-19.098188	21.457047
5944.702127	185.655762	-20.150206	23.151962
5944.705034	188.578033	-20.267096	25.197540
5944.708371	192.435425	-21.085331	27.301575
5944.711704	195.299240	-22.137348	28.645821
5944.715036	198.689087	-22.371130	29.113388
5944.718364	202.137344	-23.598482	31.451195
5944.721705	205.351852	-25.001169	33.555229
5944.725057	208.917023	-26.111631	36.068382
5944.728417	212.657516	-26.754530	38.406197
5944.731712	216.047333	-27.748100	40.159554
5944.735037	219.963196	-29.267683	42.672707
5944.738366	223.528336	-30.495035	45.419632
5944.741695	227.502625	-32.014610	47.757446
5944.745033	231.360031	-32.715954	50.153709
5944.748364	236.035660	-33.767971	53.426651
5944.751697	239.600830	-35.345993	55.706024
5944.755027	243.691986	-36.807129	58.628288
5944.758362	247.958511	-38.268265	62.719467
5944.761696	252.692581	-39.261833	65.700172
5944.765028	257.543549	-41.190533	69.148445
5944.768360	262.102295	-42.710110	72.888947
5944.771697	266.836365	-43.703682	77.798370
5944.776383	277.356537	-47.794853	85.863815
5944.779295	282.149017	-49.314434	90.364120
5944.782614	287.526001	-51.710693	95.565750
5944.785875	293.721222	-53.347164	99.598480
5944.789215	299.273529	-55.334305	106.027481
5944.792116	304.825836	-57.613674	112.105789
5944.795445	310.611908	-59.717709	117.774994
5944.798780	316.748688	-61.763294	123.444183
5944.802113	322.768555	-64.451790	131.158981
5944.805027	329.431305	-67.315605	137.763306
5944.808361	335.158966	-69.711868	145.478088
5944.811709	342.113983	-72.283463	152.900635
5944.815018	348.309174	-75.030396	161.258331
5944.818380	355.030396	-78.303337	169.440689
5944.821722	361.868500	-81.342491	178.908813
5944.825019	368.239044	-84.849213	187.675629
5944.828354	376.187622	-88.063705	197.436020
5944.831695	382.558167	-91.278206	207.897720
5944.835023	388.344238	-95.252487	219.002335
5944.838356	396.234375	-98.934547	229.990067
5944.841682	402.429565	-102.908829	241.562241
5944.845023	408.858582	-107.233788	255.881332
5944.848349	417.216248	-111.208069	267.862671
5944.851685	423.119202	-115.825249	282.357117
5944.855047	428.028625	-121.026886	296.267090
5944.858352	434.749847	-125.760971	310.936890
5944.861691	440.828186	-130.378143	327.009338
5944.865015	447.841583	-135.755112	342.322021
5944.868352	452.575684	-140.956757	359.797180
5944.871689	457.952637	-146.859726	378.441284
5944.875952	467.187012	-157.905899	413.859192
5944.879288	471.979584	-164.042664	433.146118
5944.882543	476.304474	-170.296326	453.426636
5944.885864	481.623016	-176.725311	473.765686
5944.889195	483.610168	-182.862076	496.091736
5944.892121	485.071320	-189.583298	517.248962
5944.895445	488.753357	-195.252487	540.101074
5944.898814	488.461151	-202.207474	561.550598
5944.902120	490.623627	-208.870255	586.915833
5944.905021	488.578033	-215.123917	610.177124
5944.908349	487.292236	-222.371124	634.957947
5944.911682	486.123322	-229.501465	660.147888
5944.915025	483.551727	-236.222672	684.636475
5944.918349	479.635895	-243.528351	711.404480
5944.921682	474.784943	-250.600250	737.178833
5944.925016	469.349518	-257.847443	762.953247
5944.928346	462.511383	-263.691986	792.818787
5944.931674	453.218597	-271.289886	817.658081
5944.935012	443.925751	-278.595551	845.887207
5944.938345	434.457642	-285.141418	872.655151
5944.941700	421.833435	-293.031525	899.072510
5944.945004	408.274139	-300.278778	927.769165
5944.948344	394.714783	-307.409119	952.374634
5944.951674	377.122742	-313.896545	978.616577
5944.955015	360.173584	-319.624176	1003.455933
5944.958340	341.587982	-327.280518	1027.710693
5944.961676	321.891876	-332.482147	1052.140869
5944.965004	299.741089	-337.917572	1071.720093
5944.968339	278.057861	-344.112793	1093.578613
5944.971675	254.621277	-349.372864	1116.606079
5944.975950	203.656937	-358.724121	1148.575684
5944.979208	176.655167	-365.386902	1159.797241
5944.982523	148.952072	-368.601379	1172.187622
5944.985886	120.839859	-372.166565	1182.123291
5944.988763	91.558746	-375.556396	1192.117432
5944.992096	62.394505	-377.718872	1197.552979
5944.995432	32.879601	-379.530670	1201.293457
5944.998784	3.481590	-380.056671	1201.410400
5945.001674	-27.260666	-381.868500	1201.118042
5945.005006	-56.424896	-381.459381	1200.767334
5945.008341	-86.465805	-381.400940	1193.578613
5945.011673	-115.104034	-379.472229	1185.396240
5945.015006	-143.800705	-376.491516	1178.324341
5945.018338	-171.445343	-375.673279	1170.025146
5945.021668	-199.382233	-371.231415	1156.641113
5945.024999	-225.624207	-368.952057	1143.900024
5945.028367	-250.463455	-364.685547	1125.080688
5945.031668	-274.075378	-359.367035	1109.242065
5945.035007	-297.511993	-353.639374	1090.422607
5945.038336	-320.656342	-348.320862	1069.323730
5945.041666	-341.287537	-341.307404	1052.023926
5945.044998	-360.282288	-335.112213	1027.710693
5945.048336	-379.101685	-328.390991	1003.338989
5945.051663	-396.343079	-321.845123	980.662231
5945.054999	-411.831085	-313.428986	956.348938
5945.058334	-427.026886	-305.597290	931.275879
5945.061663	-439.008179	-297.298065	905.209229
5945.065003	-452.041473	-288.940369	878.733521
5945.068329	-462.094116	-280.816467	852.316223
5945.072625	-480.504364	-263.516663	798.371155
5945.075843	-487.167175	-255.626541	771.427856
5945.079186	-494.122162	-246.567520	745.010498
5945.082517	-497.278198	-238.092926	717.658081
5945.085421	-500.434265	-230.495026	691.708374
5945.088752	-503.414978	-222.429565	664.823486
5945.092089	-505.168335	-214.071899	640.802490
5945.095447	-506.687866	-205.947998	616.138489
5945.098327	-504.642303	-198.350098	591.474609
5945.101663	-505.109894	-190.752197	567.570435
5945.104990	-503.122711	-182.862076	543.023376
5945.108352	-499.440674	-176.725311	519.528320
5945.111661	-496.459961	-168.367630	497.319153
5945.115010	-492.894806	-160.769730	476.980164
5945.118322	-487.517822	-154.516083	454.712402
5945.121660	-481.790161	-148.729980	435.600769
5945.124992	-476.530090	-142.417892	414.618958
5945.128325	-472.322021	-136.281128	396.617798
5945.131662	-466.477478	-130.261261	378.616638
5945.134993	-459.756287	-124.182945	360.732300
5945.138326	-453.035065	-119.741089	343.081848
5945.141659	-445.144928	-113.662773	327.769165
5945.144990	-439.300385	-107.993568	312.047363
5945.148323	-432.345398	-103.843956	297.728210
5945.151657	-424.630646	-99.402107	282.298645
5945.154986	-416.272919	-94.258911	269.616028
5945.158338	-410.253052	-90.576859	255.121567
5945.161652	-402.947388	-85.609001	244.601395
5945.164986	-395.700165	-81.693161	232.561661
5945.168322	-387.868500	-77.543541	221.924606
5945.172597	-373.666260	-70.179428	199.832260
5945.175832	-366.535950	-66.848045	190.831680
5945.179168	-358.470490	-63.808880	182.649338
5945.182519	-352.450623	-60.477501	173.181198
5945.185409	-345.144928	-57.905899	164.998825
5945.188745	-337.547028	-54.516071	156.641144
5945.192093	-331.234955	-51.710693	149.510803
5945.195441	-324.338379	-49.022209	141.796036
5945.198322	-317.441833	-45.632378	134.373459
5945.201719	-311.772644	-43.937462	127.184692
5945.204988	-304.876099	-41.365868	120.580368
5945.208325	-298.096436	-39.320282	114.268265
5945.211653	-292.135010	-36.398010	108.365280
5945.214983	-286.582703	-35.404438	102.812973
5945.218318	-279.686127	-33.534187	97.202225
5945.221650	-273.783173	-31.488604	91.766800
5945.224982	-267.704834	-30.319696	86.915848
5945.228314	-261.918762	-28.624784	82.766220
5945.231650	-257.009338	-27.105202	77.798370
5945.234981	-250.405029	-25.118059	73.239624
5945.238312	-245.670944	-24.124489	69.090012
5945.241648	-240.352417	-23.247808	65.466393
5945.244989	-235.735245	-21.845121	60.966103
5945.248308	-230.475159	-20.793104	57.868492
5945.251646	-226.150208	-19.624197	53.777328
5945.254982	-220.714783	-19.098188	51.790176
5945.258317	-216.623611	-17.812391	48.341911
5945.261643	-212.357086	-16.526592	44.542961
5945.264983	-208.382828	-15.825248	41.854477
5945.269592	-200.083572	-14.188779	36.886620
5945.272492	-196.050842	-14.188779	34.198135
5945.275855	-192.193451	-12.669200	31.977211
5945.279212	-188.277618	-12.143190	30.632965
5945.282514	-185.180008	-11.149619	28.587379
5945.285429	-181.322617	-10.857393	26.775574
5945.288764	-177.114548	-10.857393	23.853302
5945.292140	-173.607819	-9.805377	22.684395
5945.294978	-171.270020	-9.104033	20.989479
5945.298313	-167.880188	-8.578024	20.054352
5945.301642	-165.191696	-7.701344	18.710106
5945.305010	-161.743423	-7.292227	17.307419
5945.308310	-158.704269	-7.409118	16.021622
5945.311639	-156.074219	-6.415545	14.560493
5945.314966	-154.437759	-5.947984	13.508476
5945.318319	-151.223251	-5.305084	12.456459
5945.321635	-149.177673	-4.895967	11.755119
5945.324968	-146.547623	-4.311513	10.644653
5945.328310	-144.151367	-4.136177	9.767971
5945.331640	-142.514893	-3.084162	8.482174
5945.334966	-140.118652	-3.610169	7.722385
5945.338303	-138.189941	-2.675044	6.436588
5945.341640	-135.676788	-2.441262	6.027470
5945.344971	-133.514328	-2.149036	4.975452
5945.348324	-132.170074	-2.149036	4.040329
5945.351634	-129.890701	-1.564582	2.754528
5945.354988	-128.312683	-0.921683	1.760963
5945.358302	-126.033310	-0.980129	0.650497
5945.361639	-124.630615	-0.512566	0.299828
5945.366252	-120.130325	-0.103448	-0.693748
5945.369147	-118.610748	-0.220339	-1.044418
5945.372511	-116.974281	0.188778	-0.927528
5945.375834	-115.688477	0.364115	-1.628872
5945.379249	-114.227356	0.364115	-2.563999
5945.382089	-112.707771	0.714787	-2.797779
5945.385421	-111.129745	0.773232	-3.382233
5945.388720	-110.194626	0.714787	-4.375805
5945.392094	-108.324371	0.305669	-4.258915
5945.394962	-106.804787	0.948568	-5.603157
5945.398299	-105.051437	1.123904	-5.427818
5945.401630	-104.583870	1.474576	-5.252483
5945.404982	-103.590302	1.123904	-6.070717
5945.408300	-102.362946	1.708358	-6.479836
5945.411629	-102.070709	1.240795	-6.421391
5945.414967	-101.427818	2.175920	-6.655170
5945.418296	-99.148445	2.059030	-7.064289
5945.421633	-99.265335	1.942139	-7.298069
5945.424962	-97.979538	2.059030	-7.356518
5945.428297	-96.869080	2.292811	-7.298069
5945.431631	-96.576851	2.234366	-8.642315
5945.434977	-95.583282	2.234366	-7.590298
5945.438291	-94.531265	2.701929	-7.824078
5945.441636	-93.888367	2.935710	-8.291641
5945.444969	-93.070129	3.111046	-8.350086
5945.448296	-92.719460	2.526593	-8.583870
5945.451629	-92.310341	2.818820	-8.817650
5945.454955	-91.199883	4.046172	-8.992985
5945.458288	-90.966103	3.286382	-8.057861
5945.461623	-90.440086	3.520164	-8.817650
5945.465802	-89.271179	4.747516	-9.168320
5945.469166	-88.686729	4.981297	-9.518993
5945.472506	-88.628288	5.390415	-8.174751
5945.475886	-87.868492	4.689071	-8.992985
5945.478775	-87.167152	5.331970	-9.518993
5945.482072	-86.758034	5.507306	-9.402103
5945.485396	-86.232025	5.565751	-9.694328
5945.488719	-86.582695	5.682642	-10.454121
5945.491629	-86.232025	5.974869	-9.460548
5945.494959	-85.647568	5.974869	-10.103447
5945.498289	-85.939804	5.857978	-9.986557
5945.501621	-85.530678	5.799532	-10.629456
5945.504954	-85.180008	5.799532	-9.343658
5945.508290	-85.180008	5.857978	-9.986557
5945.511621	-84.186432	5.916423	-10.220337
5945.514950	-84.946228	5.974869	-10.337227
5945.518287	-84.127991	5.857978	-11.097019
5945.521629	-84.186432	5.974869	-10.804790
5945.524950	-84.420219	6.383986	-11.038570
5945.528286	-84.127991	6.150205	-11.155464
5945.531613	-84.537109	6.500876	-11.739918
5945.534952	-83.894211	7.085330	-11.155464
5945.538286	-84.186432	6.676213	-11.623024
5945.541624	-83.952652	6.793103	-10.571011
5945.544952	-84.127991	7.085330	-10.863235
5945.548281	-84.244881	7.085330	-11.038570
5945.551613	-83.894211	6.617767	-11.447689
5945.554955	-84.244881	6.851549	-10.454121
5945.558317	-84.303322	6.676213	-10.863235
5945.562923	-84.654007	7.260666	-10.571011
5945.565855	-85.413788	7.903565	-10.220337
5945.569187	-85.472237	7.728230	-10.746346
5945.572528	-86.232025	7.669784	-10.337227
5945.575395	-86.816475	7.903565	-9.460548
5945.578733	-86.699585	8.137346	-9.460548
5945.582039	-86.991814	8.195792	-9.928112
5945.585367	-87.108704	8.078901	-9.928112
5945.588273	-87.342491	8.604910	-10.045002
5945.591610	-89.037399	9.306253	-9.928112
5945.594941	-88.219162	9.072473	-9.635883
5945.598277	-88.628288	9.423144	-8.759205
5945.601652	-88.745178	9.715371	-8.876095
5945.604939	-89.914085	9.773817	-9.109875
5945.608277	-90.732315	9.949153	-9.811218
5945.611615	-91.842773	10.416716	-9.226768
5945.614941	-91.550552	10.124489	-9.343658
5945.618274	-92.251900	10.475161	-9.226768
5945.621611	-92.719460	10.182934	-8.876095
5945.624944	-94.239037	10.825832	-8.759205
5945.628280	-94.355927	11.176505	-8.350086
5945.631611	-95.641724	11.351841	-8.466976
5945.634947	-96.109291	11.410286	-8.116306
5945.638269	-96.927521	11.410286	-7.648743
5945.641610	-97.453537	12.111631	-7.239624
5945.644971	-98.856224	12.462303	-7.298069
5945.648271	-99.732903	12.754530	-6.596725
5945.651617	-99.966682	12.812975	-7.239624
5945.654938	-100.960251	12.812975	-6.304501
5945.658271	-102.421387	13.105202	-6.304501
5945.662454	-104.291641	13.397429	-4.784920
5945.665811	-104.700760	13.689656	-5.077148
5945.669169	-106.220337	13.280538	-4.025131
5945.672536	-107.798363	14.040328	-4.258915
5945.675386	-109.025719	14.507891	-4.200470
5945.678740	-110.136177	14.858562	-3.557568
5945.682045	-112.006424	14.858562	-3.791348
5945.685370	-112.649323	15.443016	-3.206894
5945.688305	-113.759789	16.436586	-2.037987
5945.691604	-115.337814	16.319696	-1.687317
5945.694934	-117.149612	16.845705	-1.628872
5945.698273	-118.727638	17.430157	-0.693748
5945.701597	-120.890114	17.663939	-0.343075
5945.704933	-122.701935	18.423729	0.592049
5945.708261	-124.864403	18.014610	1.585625
5945.711601	-126.617767	19.125072	1.994743
5945.714938	-128.488022	19.358854	3.397430
5945.718265	-130.241379	20.352425	3.338982
5945.721603	-131.994736	21.053770	3.981884
5945.724929	-134.157211	21.696669	5.150791
5945.728272	-136.202805	21.813559	7.605495
5945.731619	-137.371704	23.216246	7.313267
5945.734932	-140.586212	23.450027	8.599064
5945.738264	-142.631790	24.151373	9.651077
5945.741600	-145.320267	25.028053	11.345993
5945.744935	-147.248978	25.261835	12.105789
5945.748265	-149.352997	26.430742	13.040916
5945.751600	-152.625946	27.307421	14.560493
5945.754929	-154.379303	27.891874	15.670952
5945.759552	-160.282288	29.762127	18.651665
5945.762476	-162.795441	30.463470	20.872589
5945.765799	-166.477509	31.866159	21.983055
5945.769185	-168.230850	32.392170	22.918182
5945.772045	-171.737579	33.561073	25.255989
5945.775379	-175.010513	34.963764	26.308006
5945.778687	-178.517227	35.782001	28.879601
5945.782025	-182.199295	36.775574	30.866745
5945.784924	-186.115128	37.710697	33.029228
5945.788257	-188.686722	39.054939	35.367035
5945.791592	-191.901215	40.516075	36.594391
5945.794924	-196.167725	41.392754	40.042664
5945.798259	-200.025131	42.795441	42.906487
5945.801590	-202.947403	43.905903	45.244301
5945.804926	-207.564575	45.951492	47.348335
5945.808252	-212.298660	47.061954	50.445938
5945.811590	-216.623611	48.873760	53.426651
5945.814924	-220.188782	50.218002	56.407372
5945.818272	-224.455292	51.796024	59.504967
5945.821595	-229.656906	53.900059	63.420807
5945.824925	-234.566330	55.945648	67.804207
5945.828301	-238.715958	58.049679	73.005844
5945.831591	-242.807129	60.153713	75.694336
5945.834919	-247.950317	62.199303	80.545303
5945.838252	-253.151962	65.296898	85.571594
5945.841583	-258.412048	67.517822	90.422562
5945.844924	-263.438354	70.264755	95.507309
5945.848258	-268.464630	73.187019	100.124496
5945.851585	-274.133820	75.933952	106.787262
5945.854916	-279.627716	78.505547	111.638229
5945.859100	-291.082977	85.402107	124.788437
5945.862501	-296.518402	88.207481	131.100525
5945.865786	-303.356506	91.889534	137.471069
5945.869197	-308.733490	95.688484	145.478088
5945.872034	-314.694916	99.428986	153.543533
5945.875340	-321.591461	103.286377	161.316772
5945.878667	-327.202209	107.494446	170.083588
5945.882008	-333.514313	112.111626	179.025711
5945.884913	-339.183533	116.202805	188.143204
5945.888246	-345.904724	120.352417	196.617767
5945.891588	-351.807709	125.437172	206.845688
5945.894909	-355.723541	130.405014	217.424301
5945.898250	-362.912323	135.898880	227.944473
5945.901579	-368.873749	140.574509	238.639999
5945.904908	-376.530090	146.185257	250.679733
5945.908246	-381.030396	151.620682	263.128601
5945.911587	-386.524261	156.997650	275.168335
5945.914909	-391.842773	163.017532	287.675659
5945.918243	-397.044434	168.978958	301.118042
5945.921579	-402.479828	175.349503	315.963196
5945.924911	-408.032135	181.895386	330.749878
5945.928267	-411.889557	188.733490	344.835205
5945.931586	-416.857391	195.337814	360.907654
5945.934919	-420.188751	202.059021	376.921692
5945.938241	-423.870850	209.364700	394.046143
5945.941573	-426.793091	217.137924	410.527771
5945.944913	-428.897156	224.969604	428.821167
5945.948277	-431.410278	232.684402	446.471619
5945.951578	-433.455841	240.691391	465.291077
5945.956200	-433.748108	257.114563	504.332520
5945.959140	-433.397430	264.829376	523.677979
5945.962452	-431.819397	273.537720	543.549377
5945.965877	-430.708923	283.064301	563.362366
5945.968692	-428.371155	292.240234	583.292236
5945.972031	-423.637054	300.890137	604.566345
5945.975334	-418.376984	311.001160	626.892456
5945.978668	-413.526001	320.001770	648.458801
5945.981994	-405.285217	329.236145	667.395142
5945.984903	-398.096436	338.061371	687.734070
5945.988242	-389.504944	346.945068	708.657532
5945.991608	-379.277039	355.594971	728.704285
5945.994899	-367.354187	364.653992	748.692566
5945.998235	-354.379303	374.881958	768.973145
5946.001572	-340.936890	381.194061	789.136719
5946.004908	-327.143768	389.084198	808.131531
5946.008241	-310.779083	397.558746	827.359985
5946.011568	-293.829926	404.338409	843.958496
5946.014909	-275.594971	410.066071	860.323181
5946.018236	-256.424896	417.839264	878.149109
5946.021565	-236.845703	422.690247	893.695496
5946.024919	-216.682053	428.125671	908.189941
5946.028233	-194.122147	432.099945	922.392212
5946.031568	-171.211563	436.892456	933.029236
5946.034925	-147.599655	438.938080	945.127441
5946.038239	-123.753944	441.684998	953.660461
5946.041572	-99.440674	443.438385	962.018188
5946.044907	-74.367615	443.613708	970.843384
5946.048234	-48.242550	444.022797	975.168335
5946.051564	-22.818819	443.263000	981.655762
5946.055774	30.191116	441.626526	986.682129
5946.059118	57.134422	437.009369	985.513184
5946.062491	83.376389	435.139130	984.870239
5946.065836	109.092346	431.632416	981.831177
5946.068681	135.275864	426.898315	977.623047
5946.071991	161.459381	421.988892	969.440674
5946.075332	186.824661	415.384583	961.609009
5946.078672	210.787277	410.007599	952.023926
5946.081559	233.522507	404.747528	941.737610
5946.084896	257.660431	397.383423	932.795471
5946.088227	280.220337	390.428406	918.827026
5946.091565	300.617767	382.888977	902.988281
5946.094893	321.424316	375.817078	888.493896
5946.098221	341.237274	367.459412	872.304504
