time (s)	det(V)
2823.312714	1.632985	
2823.314323	1.632779	
2823.315960	1.632859	
2823.317585	1.632795	
2823.319195	1.632948	
2823.320845	1.632799	
2823.322458	1.632884	
2823.324098	1.632791	
2823.325698	1.632815	
2823.327373	1.632868	
2823.328947	1.632936	
2823.330653	1.632815	
2823.332204	1.632856	
2823.333901	1.632747	
2823.335454	1.632827	
2823.337132	1.632694	
2823.338674	1.632811	
2823.340391	1.632799	
2823.341891	1.632807	
2823.343678	1.535161	
2823.345165	1.332907	
2823.346940	1.082965	
2823.348426	0.888019	
2823.350214	0.671880	
2823.351698	0.472449	
2823.353489	0.186838	
2823.354976	0.007396	
2823.356757	-0.233477	
2823.358254	-0.456256	
2823.360013	-0.717299	
2823.361522	-0.845665	
2823.363241	-1.124566	
2823.364757	-1.329579	
2823.366494	-1.540941	
2823.368042	-1.620795	
2823.369773	-1.621250	
2823.371315	-1.621500	
2823.373021	-1.621314	
2823.374599	-1.621524	
2823.376091	-1.621423	
2823.377746	-1.621528	
2823.379241	-1.621548	
2823.380871	-1.621471	
2823.382394	-1.621544	
2823.384042	-1.621475	
2823.385519	-1.621431	
2823.387166	-1.621516	
2823.388651	-1.621552	
2823.390279	-1.621504	
2823.391762	-1.621419	
2823.393468	-1.621431	
2823.394953	-1.621520	
2823.396632	-1.621447	
2823.398158	-1.621584	
2823.399797	-1.621552	
2823.401341	-1.621592	
2823.402965	-1.621431	
2823.404528	-1.621556	
2823.406217	-1.621383	
2823.407785	-1.621612	
2823.409440	-1.621463	
2823.411027	-1.621576	
2823.412675	-1.621431	
2823.414284	-1.621576	
2823.415910	-1.621496	
2823.417544	-1.621673	
2823.419156	-1.621637	
2823.420808	-1.621616	
2823.422409	-1.621492	
2823.424071	-1.621705	
2823.425638	-1.621447	
2823.427323	-1.621685	
2823.428891	-1.621516	
2823.430581	-1.621621	
2823.432139	-1.621584	
2823.433826	-1.621633	
2823.435396	-1.621508	
2823.437102	-1.621713	
2823.438636	-1.621596	
2823.440389	-1.621741	
2823.441893	-1.621484	
2823.443667	-1.621556	
2823.445149	-1.621629	
2823.446896	-1.621673	
2823.448379	-1.621673	
2823.450143	-1.621532	
2823.451632	-1.621612	
2823.453404	-1.621705	
2823.454905	-1.621665	
2823.456654	-1.621484	
2823.458162	-1.621548	
2823.459898	-1.621512	
2823.461423	-1.621532	
2823.463150	-1.621516	
2823.464689	-1.621612	
2823.466418	-1.621536	
2823.467961	-1.621500	
2823.469654	-1.621524	
2823.471222	-1.621483	
2823.472909	-1.621516	
2823.474513	-1.621540	
2823.476000	-1.621488	
2823.477624	-1.621576	
2823.479144	-1.621520	
2823.480778	-1.621596	
2823.482255	-1.621600	
2823.483901	-1.621532	
2823.485377	-1.621600	
2823.487023	-1.621484	
2823.488506	-1.621508	
2823.490200	-1.621391	
2823.491691	-1.621568	
2823.493403	-1.621411	
2823.494908	-1.621512	
2823.496591	-1.621459	
2823.498103	-1.621560	
2823.499752	-1.621471	
2823.501282	-1.621540	
2823.502983	-1.621487	
2823.504532	-1.621504	
2823.506213	-1.621564	
2823.507776	-1.621540	
2823.509438	-1.621399	
2823.511033	-1.621500	
2823.512690	-1.621395	
2823.514281	-1.621403	
2823.515933	-1.621238	
2823.517539	-1.621459	
2823.519159	-1.621391	
2823.520821	-1.621484	
2823.522413	-1.621399	
2823.524091	-1.621455	
2823.525684	-1.621322	
2823.527371	-1.621427	
2823.528972	-1.621274	
2823.530635	-1.621451	
2823.532201	-1.621338	
2823.533901	-1.611485	
2823.535448	-1.510076	
2823.537164	-1.469697	
2823.538702	-1.380364	
2823.540431	-1.316600	
2823.541944	-1.264941	
2823.543689	-1.219099	
2823.545194	-1.115978	
2823.546967	-1.090744	
2823.548448	-1.037518	
2823.550224	-0.980429	
2823.551703	-0.922095	
2823.553498	-0.925917	
2823.554987	-0.855184	
2823.556746	-0.812544	
2823.558229	-0.783416	
2823.559973	-0.760543	
2823.561483	-0.674510	
2823.563244	-0.664415	
2823.564762	-0.636640	
2823.566490	-0.594657	
2823.568023	-0.561020	
2823.569736	-0.561745	
2823.571279	-0.526501	
2823.572766	-0.501755	
2823.574418	-0.477819	
2823.575908	-0.455043	
2823.577547	-0.434325	
2823.579069	-0.395670	
2823.580714	-0.395206	
2823.582196	-0.372914	
2823.583828	-0.343342	
2823.585310	-0.321311	
2823.587025	-0.343177	
2823.588520	-0.302156	
2823.590226	-0.287344	
2823.591731	-0.283424	
2823.593448	-0.284105	
2823.594929	-0.216075	
2823.596622	-0.231016	
2823.598134	-0.224176	
2823.599839	-0.198463	
2823.601366	-0.184368	
2823.603076	-0.199841	
2823.604622	-0.178100	
2823.606322	-0.164617	
2823.607886	-0.160162	
2823.609580	-0.147718	
2823.611140	-0.132101	
2823.612802	-0.120092	
2823.614375	-0.118610	
2823.616038	-0.103701	
2823.617642	-0.094855	
2823.619252	-0.088800	
2823.620878	-0.098307	
2823.622497	-0.074061	
2823.624130	-0.072312	
2823.625737	-0.072349	
2823.627370	-0.072961	
2823.628970	-0.035191	
2823.630665	-0.048432	
2823.632227	-0.037113	
2823.633934	-0.027002	
2823.635485	-0.017120	
2823.637210	-0.043341	
2823.638784	-0.018800	
2823.640476	-0.018115	
2823.642042	-0.023445	
2823.643756	-0.026921	
2823.645285	0.025507	
2823.647045	-0.004439	
2823.648545	0.005293	
2823.650298	0.013571	
2823.651780	0.031566	
2823.653548	-0.012842	
2823.655032	0.018635	
2823.656826	0.021205	
2823.658307	0.015666	
2823.660093	0.004911	
2823.661573	0.054129	
2823.663323	0.031485	
2823.664830	0.035788	
2823.666555	0.047204	
2823.668090	0.047917	
2823.669641	0.045866	
2823.671246	0.044650	
2823.672736	0.046962	
2823.674406	0.042652	
2823.675899	0.043119	
2823.677533	0.038051	
2823.679058	0.065464	
2823.680709	0.053730	
2823.682200	0.057710	
2823.683903	0.061243	
2823.685392	0.063833	
2823.687125	0.034007	
2823.688610	0.056143	
2823.690318	0.054109	
2823.691800	0.053899	
2823.693506	0.032948	
2823.694993	0.086279	
2823.696760	0.053085	
2823.698242	0.050652	
2823.700016	0.057452	
2823.701527	0.074331	
2823.703269	0.029225	
2823.704778	0.045742	
2823.706518	0.051736	
2823.708040	0.047163	
2823.709743	0.053101	
2823.711295	0.053383	
2823.713010	0.055067	
2823.714553	0.048227	
2823.716252	0.058499	
2823.717813	0.058805	
2823.719508	0.043852	
2823.721084	0.039333	
2823.722756	0.053947	
2823.724339	0.043889	
2823.725976	0.043768	
2823.727593	0.045347	
2823.729222	0.055961	
2823.730850	0.046906	
2823.732477	0.054100	
2823.734123	0.051571	
2823.735734	0.051107	
2823.737416	0.021286	
2823.739006	0.044537	
2823.740679	0.045033	
2823.742245	0.037258	
2823.743942	0.029326	
2823.745513	0.069839	
2823.747190	0.041516	
2823.748740	0.044392	
2823.750430	0.049706	
2823.751985	0.060401	
2823.753703	0.009785	
2823.755207	0.033056	
2823.756961	0.037834	
2823.758443	0.021169	
2823.760226	0.019155	
2823.761709	0.062725	
2823.763482	0.037387	
2823.764984	0.037500	
2823.766575	0.047240	
2823.768096	0.045496	
2823.769669	0.023223	
2823.771244	0.032001	
2823.772741	0.039703	
2823.774392	0.036851	
2823.775886	0.027078	
2823.777510	0.027252	
2823.779030	0.054531	
2823.780742	0.031602	
2823.782223	0.030365	
2823.783928	0.040279	
2823.785404	0.052541	
2823.787119	0.012633	
2823.788605	0.032005	
2823.790294	0.036009	
2823.791780	0.028935	
2823.793530	0.002320	
2823.795012	0.061504	
2823.796791	0.032658	
2823.798282	0.035268	
2823.800070	0.037963	
2823.801562	0.048932	
2823.803314	-0.000798	
2823.804819	0.024661	
2823.806569	0.026688	
2823.808089	0.022687	
2823.809831	0.019191	
2823.811366	0.039151	
2823.813077	0.033802	
2823.814618	0.022357	
2823.816326	0.028545	
2823.817880	0.034325	
2823.819579	0.017841	
2823.821147	0.016452	
2823.822836	0.022772	
2823.824425	0.016254	
2823.826099	0.011956	
2823.827689	0.016158	
2823.829345	0.025656	
2823.830935	0.016923	
2823.832580	0.027590	
2823.834181	0.030551	
2823.835803	0.020915	
2823.837468	0.001917	
2823.839050	0.013289	
2823.840727	0.009116	
2823.842324	0.005571	
2823.843965	0.000024	
2823.845536	0.037141	
2823.847221	0.018550	
2823.848772	0.018140	
2823.850475	0.023779	
2823.852020	0.019493	
2823.853736	-0.013902	
2823.855268	0.007098	
2823.856995	0.004524	
2823.858491	-0.001740	
2823.860255	-0.015461	
2823.861747	0.035844	
2823.863399	0.000105	
2823.864879	0.000383	
2823.866458	0.006417	
2823.867990	0.006836	
2823.869519	0.001390	
2823.871149	-0.006711	
2823.872649	0.001458	
2823.874296	-0.005410	
2823.875833	-0.010816	
2823.877470	-0.010119	
2823.878962	0.023558	
2823.880705	0.002723	
2823.882183	0.002844	
2823.883921	0.011694	
2823.885397	0.005273	
2823.887106	-0.027296	
2823.888647	-0.007887	
2823.890366	-0.007396	
2823.891884	-0.016629	
2823.893637	-0.034128	
2823.895115	0.023791	
2823.896900	-0.011702	
2823.898386	-0.009918	
2823.900167	-0.004431	
2823.901648	0.007972	
2823.903407	-0.040126	
2823.904892	-0.013475	
2823.906666	-0.011646	
2823.908168	-0.018168	
2823.909925	-0.024420	
2823.911430	0.001051	
2823.913164	-0.014937	
2823.914684	-0.017245	
2823.916395	-0.007730	
2823.917929	-0.006703	
2823.919624	-0.022877	
2823.921189	-0.022389	
2823.922868	-0.014019	
2823.924426	-0.025725	
2823.926094	-0.024021	
2823.927677	-0.022990	
2823.929337	-0.008568	
2823.930927	-0.021616	
2823.932536	-0.015408	
2823.934164	-0.013096	
2823.935777	-0.014450	
2823.937446	-0.041633	
2823.939060	-0.018679	
2823.940703	-0.025914	
2823.942292	-0.026821	
2823.943970	-0.034027	
2823.945553	-0.000222	
2823.947248	-0.024307	
2823.948804	-0.024158	
2823.950513	-0.014514	
2823.952077	-0.008633	
2823.953774	-0.049512	
2823.955331	-0.025205	
2823.957052	-0.023030	
2823.958537	-0.032404	
2823.960113	-0.043429	
2823.961604	-0.006381	
2823.963199	-0.024049	
2823.964723	-0.028863	
2823.966282	-0.020395	
2823.967877	-0.024436	
2823.969377	-0.025318	
2823.971019	-0.044074	
2823.972588	-0.028347	
2823.974209	-0.035312	
2823.975738	-0.041830	
2823.977428	-0.043603	
2823.978908	-0.016689	
2823.980620	-0.038950	
2823.982095	-0.034422	
2823.983802	-0.024819	
2823.985357	-0.025382	
2823.987058	-0.060119	
2823.988602	-0.035058	
2823.990351	-0.039518	
2823.991844	-0.050479	
2823.993605	-0.065005	
2823.995092	-0.016464	
2823.996870	-0.042301	
2823.998354	-0.044299	
2824.000141	-0.035469	
2824.001621	-0.020830	
2824.003412	-0.070898	
2824.004900	-0.047949	
2824.006683	-0.044944	
2824.008171	-0.051087	
2824.009903	-0.053291	
2824.011409	-0.037060	
2824.013130	-0.046523	
2824.014659	-0.053073	
2824.016385	-0.044078	
2824.017937	-0.043393	
2824.019655	-0.059555	
2824.021201	-0.056473	
2824.022897	-0.048481	
2824.024466	-0.053947	
2824.026158	-0.060260	
2824.027742	-0.058761	
2824.029408	-0.046354	
2824.031006	-0.056759	
2824.032664	-0.049097	
2824.034263	-0.046950	
2824.035910	-0.053254	
2824.037509	-0.069166	
2824.039147	-0.054060	
2824.040773	-0.058636	
2824.042375	-0.063406	
2824.044030	-0.066403	
2824.045615	-0.034849	
2824.047292	-0.056058	
2824.048869	-0.048066	
2824.050538	-0.047691	
2824.052101	-0.036944	
2824.053825	-0.078258	
2824.055299	-0.053935	
2824.056937	-0.051772	
2824.058420	-0.056497	
2824.060066	-0.075708	
2824.061551	-0.024959	
2824.063157	-0.050338	
2824.064693	-0.053689	
2824.066249	-0.047619	
2824.067831	-0.046358	
2824.069446	-0.052207	
2824.071043	-0.060658	
2824.072618	-0.045347	
2824.074245	-0.050696	
2824.075789	-0.052735	
2824.077438	-0.054129	
2824.078931	-0.020528	
2824.080632	-0.037830	
2824.082207	-0.035413	
2824.083869	-0.029391	
2824.085429	-0.024057	
2824.087154	-0.061919	
2824.088703	-0.040634	
2824.090420	-0.033089	
2824.091945	-0.038724	
2824.093671	-0.051107	
2824.095177	0.002900	
2824.096920	-0.024327	
2824.098405	-0.024073	
2824.100185	-0.012270	
2824.101669	0.006562	
2824.103450	-0.048723	
2824.104941	-0.013237	
2824.106720	-0.008983	
2824.108199	-0.015340	
2824.109933	-0.016286	
2824.111439	0.010602	
2824.113187	-0.001317	
2824.114714	-0.001946	
2824.116450	0.009648	
2824.117981	0.012637	
2824.119690	0.004564	
2824.121231	0.007138	
2824.122916	0.021338	
2824.124469	0.017745	
2824.126143	0.017487	
2824.127719	0.027727	
2824.129386	0.043675	
2824.130963	0.037254	
2824.132616	0.046132	
2824.134207	0.055716	
2824.135844	0.062189	
2824.137459	0.044223	
2824.139067	0.066677	
2824.140748	0.063321	
2824.142336	0.070770	
2824.144011	0.061718	
2824.145601	0.110968	
2824.147249	0.101804	
2824.148826	0.109123	
2824.150539	0.128544	
2824.152019	0.158389	
2824.153662	0.111347	
2824.155148	0.145354	
2824.156795	0.148512	
2824.158281	0.155094	
2824.159904	0.167216	
2824.161412	0.202109	
2824.162977	0.199539	
2824.164545	0.208079	
2824.166156	0.229199	
2824.167754	0.253192	
2824.169331	0.259307	
2824.170938	0.258308	
2824.172484	0.290381	
2824.174117	0.311679	
2824.175630	0.317146	
2824.177326	0.330508	
2824.178924	0.388846	
2824.180589	0.389736	
2824.182158	0.414208	
2824.183862	0.441617	
2824.185421	0.475249	
2824.187136	0.459680	
2824.188683	0.508866	
2824.190381	0.540741	
2824.191898	0.566644	
2824.193629	0.579671	
2824.195123	0.670905	
2824.196921	0.685100	
2824.198399	0.713758	
2824.200180	0.766138	
2824.201668	0.820605	
2824.203460	0.815586	
2824.204945	0.878625	
2824.206729	0.936270	
2824.208217	0.974475	
2824.209986	1.021372	
2824.211482	1.108163	
2824.213246	1.143523	
2824.214752	1.200484	
2824.216470	1.254407	
2824.217994	1.322163	
2824.219693	1.373891	
2824.221231	1.443186	
2824.222927	1.502548	
2824.224494	1.577180	
2824.226190	1.619026	
2824.227754	1.631663	
2824.229438	1.632980	
2824.231008	1.632658	
2824.232668	1.632964	
2824.234264	1.632706	
2824.235900	1.632888	
2824.237509	1.632662	
2824.239130	1.632924	
2824.240769	1.632606	
2824.242376	1.632799	
2824.244015	1.632682	
2824.245614	1.632932	
2824.247277	1.632759	
2824.248762	1.632751	
2824.250420	1.632686	
2824.251900	1.632763	
2824.253527	1.632799	
2824.255009	1.632654	
2824.256633	1.632747	
2824.258131	1.632706	
2824.259722	1.632892	
2824.261275	1.632719	
2824.262913	1.632892	
2824.264482	1.632823	
2824.266073	1.632799	
2824.267663	1.632779	
2824.269218	1.632847	
2824.270830	1.632694	
2824.272365	1.632851	
2824.274055	1.632795	
2824.275669	1.633057	
2824.277332	1.632646	
2824.278924	1.632944	
2824.280592	1.632851	
2824.282163	1.632823	
2824.283860	1.632670	
2824.285414	1.632908	
2824.287127	1.632722	
2824.288677	1.632783	
2824.290380	1.632767	
2824.291932	1.632928	
2824.293667	1.632731	
2824.295173	1.632980	
2824.296934	1.632985	
2824.298413	1.632912	
2824.300205	1.633012	
2824.301685	1.632912	
2824.303465	1.632771	
2824.304951	1.632775	
2824.306749	1.632880	
2824.308226	1.632847	
2824.310011	1.633017	
2824.311497	1.632859	
2824.313247	1.632940	
2824.314757	1.632795	
2824.316465	1.632920	
2824.317991	1.632835	
2824.319715	1.632880	
2824.321262	1.632835	
2824.322972	1.633085	
2824.324517	1.632932	
2824.326209	1.632960	
2824.327773	1.632779	
2824.329454	1.632811	
2824.331032	1.632747	
2824.332698	1.633041	
2824.334295	1.632775	
2824.335945	1.633101	
2824.337549	1.632739	
2824.339185	1.632996	
2824.340789	1.632799	
2824.342426	1.632972	
2824.344103	1.632755	
2824.345598	1.632743	
2824.347243	1.632763	
2824.348717	1.632715	
2824.350353	1.632860	
2824.351830	1.632755	
2824.353465	1.632666	
2824.354948	1.632707	
2824.356571	1.632666	
2824.358096	1.632783	
2824.359766	1.632884	
2824.361307	1.632702	
2824.362944	1.632916	
2824.364505	1.632610	
2824.366117	1.632839	
2824.367698	1.632666	
2824.369298	1.632936	
2824.370883	1.632739	
2824.372531	1.632892	
2824.374136	1.632541	
2824.375745	1.632900	
2824.377397	1.632674	
2824.378994	1.632892	
2824.380667	1.632642	
2824.382276	1.632912	
2824.383934	1.632759	
2824.385533	1.632896	
2824.387213	1.632602	
2824.388794	1.632843	
2824.390502	1.629572	
2824.392058	1.412651	
2824.393754	1.153292	
2824.395297	1.008921	
2824.396990	0.753667	
2824.398493	0.553241	
2824.400253	0.337174	
2824.401746	0.165733	
2824.403516	-0.120342	
2824.405006	-0.285358	
2824.406800	-0.496619	
2824.408275	-0.698817	
2824.410050	-0.928048	
2824.411534	-1.059883	
2824.413299	-1.296249	
2824.414796	-1.491232	
2824.416536	-1.612593	
2824.418045	-1.621427	
2824.419781	-1.621322	
2824.421304	-1.621492	
2824.423022	-1.621371	
2824.424562	-1.621496	
2824.426255	-1.621395	
2824.427806	-1.621536	
2824.429500	-1.621371	
2824.431073	-1.621459	
2824.432744	-1.621395	
2824.434321	-1.621548	
2824.435973	-1.621447	
2824.437544	-1.621403	
2824.439192	-1.621415	
2824.440812	-1.621600	
2824.442333	-1.621423	
2824.443971	-1.621556	
2824.445450	-1.621568	
2824.447101	-1.621649	
2824.448580	-1.621548	
2824.450225	-1.621532	
2824.451711	-1.621665	
2824.453330	-1.621584	
2824.454834	-1.621455	
2824.456521	-1.621379	
2824.458042	-1.621500	
2824.459684	-1.621560	
2824.461223	-1.621552	
2824.462852	-1.621524	
2824.464419	-1.621592	
2824.466008	-1.621500	
2824.467596	-1.621641	
2824.469257	-1.621423	
2824.470863	-1.621572	
2824.472501	-1.621435	
2824.474120	-1.621592	
2824.475737	-1.621475	
2824.477399	-1.621540	
2824.478998	-1.621512	
2824.480664	-1.621612	
2824.482280	-1.621528	
2824.483945	-1.621681	
2824.485507	-1.621492	
2824.487192	-1.621608	
2824.488755	-1.621572	
2824.490470	-1.621596	
2824.492019	-1.621467	
2824.493723	-1.621552	
2824.495286	-1.621524	
2824.496990	-1.621604	
2824.498531	-1.621415	
2824.500268	-1.621665	
2824.501756	-1.621552	
2824.503534	-1.621524	
2824.505014	-1.621632	
2824.506781	-1.621508	
2824.508264	-1.621580	
2824.510050	-1.621540	
2824.511549	-1.621620	
2824.513316	-1.621520	
2824.514811	-1.621556	
2824.516576	-1.621451	
2824.518083	-1.621524	
2824.519830	-1.621492	
2824.521347	-1.621588	
2824.523081	-1.621379	
2824.524612	-1.621496	
2824.526336	-1.621395	
2824.527875	-1.621467	
2824.529584	-1.621431	
2824.531132	-1.621552	
2824.532822	-1.621403	
2824.534390	-1.621467	
2824.536066	-1.621423	
2824.537680	-1.621524	
2824.539177	-1.621504	
2824.540810	-1.621544	
2824.542333	-1.621516	
2824.543964	-1.621560	
2824.545449	-1.621322	
2824.547101	-1.621439	
2824.548577	-1.621467	
2824.550223	-1.621496	
2824.551711	-1.621544	
2824.553403	-1.621431	
2824.554916	-1.621572	
2824.556600	-1.621455	
2824.558088	-1.621443	
2824.559757	-1.621322	
2824.561286	-1.621451	
2824.562937	-1.621403	
2824.564483	-1.621379	
2824.566168	-1.621367	
2824.567720	-1.621492	
2824.569380	-1.621355	
2824.570966	-1.621475	
2824.572621	-1.621383	
2824.574197	-1.621508	
2824.575840	-1.621338	
2824.577451	-1.621411	
2824.579092	-1.621282	
2824.580729	-1.621278	
2824.582310	-1.597322	
2824.583980	-1.503458	
2824.585569	-1.435802	
2824.587244	-1.414758	
2824.588828	-1.333068	
2824.590518	-1.279419	
2824.592099	-1.240602	
2824.593807	-1.202683	
2824.595351	-1.106040	
2824.597065	-1.084758	
2824.598613	-1.045075	
2824.600324	-0.986713	
2824.601849	-0.936282	
2824.603579	-0.941894	
2824.605064	-0.877904	
2824.606847	-0.832622	
2824.608332	-0.810800	
2824.610122	-0.780205	
2824.611605	-0.704170	
2824.613387	-0.690643	
2824.614867	-0.665563	
2824.616622	-0.625916	
2824.618118	-0.590411	
2824.619889	-0.593243	
2824.621402	-0.549866	
2824.623154	-0.515496	
2824.624668	-0.497707	
2824.626395	-0.470645	
2824.627921	-0.446165	
2824.629646	-0.413269	
2824.631189	-0.404874	
2824.632890	-0.377623	
2824.634486	-0.355362	
2824.635976	-0.340526	
2824.637645	-0.340224	
2824.639141	-0.309113	
2824.640782	-0.295534	
2824.642317	-0.286579	
2824.643946	-0.275610	
2824.645436	-0.219946	
2824.647098	-0.231943	
2824.648586	-0.216941	
2824.650317	-0.195116	
2824.651804	-0.171538	
2824.653491	-0.207531	
2824.654981	-0.170950	
2824.656686	-0.156226	
2824.658168	-0.150329	
2824.659847	-0.146603	
2824.661353	-0.119339	
2824.663097	-0.108144	
2824.664630	-0.109554	
2824.666356	-0.094452	
2824.667885	-0.085098	
2824.669607	-0.087060	
2824.671153	-0.086520	
2824.672849	-0.067821	
2824.674408	-0.069066	
2824.676060	-0.062221	
2824.677637	-0.058548	
2824.679273	-0.027812	
2824.680870	-0.040565	
2824.682508	-0.032557	
2824.684122	-0.019533	
2824.685759	-0.012282	
2824.687367	-0.040352	
2824.688970	-0.017112	
2824.690647	-0.018776	
2824.692225	-0.020315	
2824.693906	-0.029088	
2824.695476	0.024645	
2824.697179	-0.001148	
2824.698755	0.002913	
2824.700448	0.011287	
2824.702008	0.024782	
2824.703707	-0.017886	
2824.705251	0.009064	
2824.706967	0.007843	
2824.708468	0.002755	
2824.710230	-0.009986	
2824.711718	0.046298	
2824.713490	0.025423	
2824.714977	0.019715	
2824.716768	0.032110	
2824.718249	0.028653	
2824.720012	-0.000157	
2824.721490	0.017060	
2824.723261	0.023578	
2824.724756	0.014260	
2824.726491	0.019271	
2824.728004	0.034954	
2824.729757	0.036432	
2824.731294	0.017507	
2824.732851	0.029419	
2824.734439	0.034813	
2824.735939	0.029938	
2824.737599	0.011589	
2824.739099	0.028883	
