time (s)	magX	magY	magZ
3602.312627	139.016373	-83.212746	15.846291
3602.315982	139.600830	-84.206314	15.612511
3602.319297	141.237289	-85.784340	16.606079
3602.322629	142.698425	-87.479256	17.658096
3602.325965	143.925781	-87.771484	18.593216
3602.329295	145.445358	-88.881943	19.411461
3602.332629	146.964935	-91.044426	19.995911
3602.336898	150.062531	-93.674461	22.099945
3602.340145	151.348343	-93.966690	22.099945
3602.343469	152.926361	-94.784927	22.859734
3602.346827	153.919937	-96.304504	24.671539
3602.349731	155.907074	-97.765640	25.898888
3602.353090	157.952667	-99.460556	27.126244
3602.356407	159.764465	-100.863243	28.645821
3602.359753	161.810059	-102.733498	29.230278
3602.362629	163.680298	-104.486847	31.451195
3602.365959	165.492111	-106.181770	32.795441
3602.369288	168.297501	-107.409119	34.139687
3602.372633	170.752197	-108.987144	35.133255
3602.375961	171.628876	-111.266510	38.230865
3602.379289	173.966690	-113.312103	39.750443
3602.382632	176.655167	-115.474586	41.912918
3602.385955	178.934540	-117.344833	43.783165
3602.389291	181.856812	-119.098190	45.185852
3602.392626	183.902390	-122.137344	47.699013
3602.395990	185.597305	-123.773819	50.153709
3602.399291	188.811813	-126.286972	52.549973
3602.402625	192.084747	-128.858566	55.413795
3602.405957	194.422562	-131.663940	57.751610
3602.409286	197.344833	-134.293991	60.498535
3602.412618	199.741104	-136.514908	63.187027
3602.415955	202.897141	-139.495621	66.576851
3602.419282	205.644058	-141.658096	69.557571
3602.422621	208.274109	-145.457047	73.239624
3602.425959	212.248398	-147.210403	75.986557
3602.429287	215.346008	-150.775574	80.662186
3602.433535	220.255402	-156.620117	87.324951
3602.436893	224.171265	-159.834610	92.000580
3602.440170	227.853302	-162.756882	96.500870
3602.443465	230.308014	-166.906494	100.708939
3602.446394	233.990067	-169.887207	105.852127
3602.449716	236.327881	-174.329041	109.767975
3602.453043	239.717728	-177.251312	115.670959
3602.456372	243.516663	-181.225601	119.353012
3602.459279	247.783157	-185.024551	125.489777
3602.462620	250.530106	-188.765045	130.516083
3602.465950	255.264191	-193.090012	137.120407
3602.469286	258.712463	-197.064285	142.848038
3602.472617	262.219177	-200.746353	150.095261
3602.475964	265.433655	-204.720642	156.348907
3602.479305	270.576843	-207.584457	163.187012
3602.482654	274.843353	-212.727646	171.427811
3602.485945	278.642334	-217.520172	178.967270
3602.489286	282.616577	-221.845123	186.506714
3602.492607	286.649323	-227.455887	195.331970
3602.495944	290.565186	-231.196381	204.274124
3602.499273	294.948578	-236.222672	213.742233
3602.502613	299.507294	-240.489197	222.509079
3602.505942	302.780243	-245.807724	232.853867
3602.509278	306.170074	-251.009354	243.783188
3602.512611	310.611908	-256.678558	255.355362
3602.515944	314.001740	-261.880157	267.745789
3602.519273	317.625366	-267.198700	278.850403
3602.522614	321.424316	-273.919922	290.305664
3602.525965	324.814148	-278.478668	306.553467
3602.530194	330.717133	-290.635284	332.795471
3602.533538	333.347168	-296.304474	346.997681
3602.536879	336.737000	-302.090576	363.187012
3602.540131	339.717712	-308.811798	379.201050
3602.543454	341.295746	-314.831665	395.215088
3602.546369	343.224426	-321.435974	412.047302
3602.549730	345.211578	-325.819397	431.509644
3602.553034	346.789612	-333.183502	448.984802
3602.555943	348.309174	-338.618927	467.395142
3602.559276	348.776733	-343.995880	486.798950
3602.562602	347.900055	-350.249542	506.319702
3602.565938	348.133850	-357.905914	526.775635
3602.569292	346.205139	-362.990631	547.289917
3602.572608	346.672699	-369.770294	569.966675
3602.575940	345.620697	-375.614807	591.416138
3602.579268	342.990662	-379.589111	614.209839
3602.582615	340.711273	-383.680298	637.003540
3602.585940	336.853882	-389.583252	659.797180
3602.589268	333.990082	-394.083557	681.655823
3602.592598	329.665100	-398.408508	705.793701
3602.595934	323.762146	-403.201019	733.496826
3602.599270	319.086517	-408.636444	755.355408
3602.602602	312.189972	-412.026276	779.785522
3602.605936	306.696075	-413.838104	807.196411
3602.609270	298.338409	-416.585022	830.925232
3602.612626	290.097626	-419.390411	857.985352
3602.615937	279.635895	-423.423096	880.428467
3602.619270	270.167725	-423.773834	907.313293
3602.622598	259.063110	-426.228485	930.633057
3602.627276	235.042099	-426.579193	981.012817
3602.630239	222.242554	-424.592041	1006.787231
3602.633541	206.579208	-425.351807	1030.399170
3602.636879	191.500290	-423.598450	1052.608398
3602.640115	175.486267	-419.039734	1073.181152
3602.643025	158.244888	-419.215057	1093.227905
3602.646359	140.302170	-414.013458	1116.781372
3602.649696	121.015205	-409.454681	1132.503296
3602.653025	101.377556	-406.123322	1151.205811
3602.655961	80.687904	-401.447693	1164.005249
3602.659260	59.472237	-393.615997	1178.675049
3602.662595	37.964348	-388.531281	1193.520264
3602.665924	16.047340	-379.589111	1203.923462
3602.669257	-7.213910	-371.640564	1215.846313
3602.672599	-30.007599	-364.042664	1219.820557
3602.675930	-53.327297	-355.334290	1226.541748
3602.679261	-76.413208	-344.697235	1231.801880
3602.682612	-100.375801	-334.995300	1240.159546
3602.685930	-123.520157	-323.130920	1234.256592
3602.689261	-147.365875	-310.915802	1237.178833
3602.692590	-169.808884	-300.395660	1231.801880
3602.695927	-192.894791	-287.303925	1230.866821
3602.699285	-215.162476	-274.562836	1222.158447
3602.702592	-237.254807	-261.997070	1216.021729
3602.705927	-257.535370	-247.210403	1208.073120
3602.709261	-278.634125	-233.826431	1191.708374
3602.712586	-298.330200	-220.617767	1179.727051
3602.715921	-318.318542	-205.129745	1167.628906
3602.719252	-335.676788	-191.453537	1155.764404
3602.723950	-370.217987	-161.471069	1122.684448
3602.726869	-386.407349	-146.859726	1104.157227
3602.730185	-400.375793	-132.306839	1086.097534
3602.733572	-413.759796	-117.929283	1065.641724
3602.736789	-426.968445	-103.142609	1046.763916
3602.739688	-437.839264	-88.706612	1024.496216
3602.743032	-448.768555	-75.439507	1001.176514
3602.746343	-458.938019	-61.178844	979.142578
3602.749685	-469.107544	-48.554646	959.388123
3602.752587	-475.536530	-35.462887	935.016418
3602.755921	-482.257751	-23.247808	910.878418
3602.759256	-489.855621	-11.324956	884.285767
3602.762583	-493.537720	0.364115	863.187073
3602.765920	-498.856201	12.228521	838.406250
3602.769246	-503.648743	23.157801	816.255432
3602.772588	-507.097015	32.625950	790.539490
3602.775918	-508.850372	42.210987	766.752197
3602.779252	-508.441254	51.211575	746.647034
3602.782596	-509.902374	60.445942	721.515503
3602.785930	-509.551727	68.277611	696.150208
3602.789243	-508.207458	75.700172	675.577454
3602.792585	-508.558136	82.421387	652.842163
3602.795915	-506.804810	88.675041	629.873169
3602.799251	-503.181183	94.636467	610.527771
3602.802581	-501.252472	100.188774	587.675598
3602.805913	-498.330200	105.039734	567.161316
3602.809249	-494.239044	110.007591	546.530090
3602.812583	-490.089417	114.566338	525.840454
3602.815949	-484.946259	118.131500	506.319702
3602.820588	-474.776733	124.443604	469.031555
3602.823458	-468.698395	127.774986	450.562866
3602.826856	-463.146118	130.288132	434.139648
3602.830252	-457.593811	132.158386	417.248962
3602.833020	-452.041473	134.554642	400.650513
3602.836338	-446.138519	135.489777	384.870239
3602.839670	-440.060181	136.892456	369.849792
3602.843005	-432.403839	138.470474	355.179993
3602.845909	-426.325562	139.580933	341.328491
3602.849244	-418.786102	139.873169	326.892456
3602.852575	-412.006439	140.516083	314.969604
3602.855914	-405.635895	141.042068	302.754517
3602.859240	-398.914673	141.392746	290.364136
3602.862577	-391.258331	141.451202	278.675049
3602.865904	-386.524261	141.684982	268.330200
3602.869245	-378.341919	141.801865	256.816467
3602.872581	-372.322021	140.808289	246.997665
3602.875904	-365.250122	140.632965	236.886612
3602.879242	-358.528931	140.574509	228.061386
3602.882572	-351.983032	139.639389	219.294571
3602.885922	-346.489197	139.171829	210.352432
3602.889280	-339.475739	138.879593	200.592056
3602.892578	-333.338989	137.476913	193.052597
3602.895908	-327.319092	136.834015	184.870255
3602.899240	-321.007019	135.431320	178.032150
3602.902598	-313.935120	135.255997	169.089996
3602.905908	-308.382812	133.677963	163.888367
3602.909242	-303.765625	132.158386	156.407364
3602.912572	-297.102844	132.099930	150.504395
3602.917264	-285.647583	128.943893	137.938629
3602.920116	-279.803040	127.599640	131.918762
3602.923531	-275.361176	125.437172	126.307999
3602.926843	-269.633545	123.625359	120.288132
3602.930160	-265.074799	122.164238	115.437180
3602.933025	-260.457642	120.644653	110.878433
3602.936330	-254.087097	119.592628	105.326126
3602.939658	-250.346588	117.663940	102.053192
3602.942990	-246.489197	116.495033	97.319122
3602.945924	-241.521332	115.267677	93.344833
3602.949235	-236.670380	114.157219	88.727646
3602.952567	-233.222076	112.754532	85.104034
3602.955895	-227.845123	111.410278	81.363525
3602.959234	-224.338394	109.481583	77.097031
3602.962566	-221.123917	108.254242	73.940971
3602.965901	-216.915848	106.676208	70.726479
3602.969230	-211.597305	105.741081	67.453545
3602.972563	-208.441254	104.455292	64.472824
3602.975912	-204.992981	103.403267	62.076561
3602.979231	-201.077133	101.591461	58.803619
3602.982563	-197.570419	101.123901	57.576279
3602.985910	-194.823486	99.779655	54.654007
3602.989234	-191.433655	98.493858	52.082413
3602.992558	-189.271194	97.032730	50.738167
3602.995902	-185.939804	96.272934	47.932793
3602.999238	-181.790176	95.279366	46.004089
3603.002563	-179.803040	94.461136	43.783165
3603.005900	-176.179428	93.292221	42.497368
3603.009229	-173.257156	92.707771	40.451782
3603.012560	-171.562241	91.772644	39.107536
3603.016765	-166.009933	90.253067	35.191696
3603.020133	-162.912338	88.967270	33.847458
3603.023516	-160.749847	88.441261	32.444771
3603.026838	-159.171829	87.213905	30.866745
3603.029670	-156.775574	86.863235	29.697838
3603.033020	-154.262405	85.518997	28.002930
3603.036312	-152.333725	85.109879	27.184685
3603.039644	-150.171249	84.174751	26.191116
3603.042554	-147.424301	83.122734	24.496201
3603.045897	-145.846283	82.070717	23.444183
3603.049224	-143.976028	81.603157	21.866165
3603.052560	-141.755112	80.551140	22.041496
3603.055888	-140.352432	79.732903	20.580368
3603.059219	-138.832840	78.914673	20.112801
3603.062581	-136.728806	78.973114	19.353012
3603.065888	-134.390991	77.745766	16.898308
3603.069220	-132.637634	77.219749	16.196960
3603.072553	-132.345413	76.518410	15.612511
3603.075887	-129.832260	75.291054	15.028053
3603.079221	-128.897141	74.706596	14.443604
3603.082553	-127.377556	74.765045	13.333138
3603.085885	-125.799522	73.537689	12.456459
3603.089215	-125.273529	73.187019	11.521339
3603.092571	-122.468147	72.777908	10.936882
3603.095884	-121.649910	72.427231	10.410873
3603.099214	-120.071884	71.316772	8.715954
3603.102552	-119.545876	71.258331	8.949734
3603.105902	-118.084740	71.199883	9.300407
3603.109218	-117.266510	70.498535	7.897720
3603.113405	-115.513145	69.563408	6.845703
3603.116735	-114.110458	69.154297	6.962593
3603.120094	-113.058449	69.037407	6.845703
3603.123443	-112.357101	68.394501	5.852135
3603.126330	-111.538864	68.160721	5.969025
3603.129667	-110.720619	67.810051	5.092342
3603.133026	-109.727058	67.634720	4.917011
3603.136332	-109.259499	67.284050	4.566338
3603.139217	-107.739914	67.167152	4.800117
3603.142588	-107.213905	67.459381	5.092342
3603.145883	-106.863235	67.167152	4.683228
3603.149222	-106.337227	66.641144	3.923435
3603.152548	-105.811218	67.050262	5.326126
3603.155878	-104.116310	67.167152	3.689655
3603.159213	-103.707184	66.816475	3.572765
3603.162545	-103.707184	66.699585	3.222092
3603.165884	-102.947403	66.465805	3.105202
3603.169212	-102.596725	66.290474	3.455875
3603.172541	-102.187607	66.290474	3.280540
3603.175875	-101.544708	65.939804	2.170074
3603.179210	-100.901810	65.998245	2.228523
3603.182543	-100.726471	65.764465	2.345417
3603.185873	-99.908241	66.056694	1.527180
3603.189216	-99.732903	65.939804	1.644070
3603.192542	-99.732903	65.647568	2.170074
3603.195887	-99.908241	65.998245	1.936295
3603.199204	-99.323784	65.530678	1.760963
3603.202539	-99.148445	65.939804	1.293400
3603.205873	-98.739334	65.647568	0.884277
3603.210058	-98.271767	65.998245	1.468731
3603.213384	-98.213318	66.524254	0.708939
3603.216750	-98.563995	66.582695	1.001171
3603.220100	-98.271767	66.173584	0.592049
3603.222979	-97.921097	66.699585	0.124485
3603.226315	-97.804207	65.939804	0.475159
3603.229698	-97.687317	66.582695	0.475159
3603.232992	-98.505554	67.517822	0.416718
3603.235879	-97.921097	66.524254	1.176510
3603.239203	-97.687317	67.517822	1.001171
3603.242535	-97.804207	67.693161	0.825836
3603.245866	-98.213318	67.517822	0.942726
3603.249203	-97.862648	68.452950	0.124485
3603.252539	-98.505554	68.043831	1.176510
3603.255869	-98.447105	68.862068	0.884277
3603.259209	-99.090004	69.095848	1.059616
3603.262530	-98.973114	69.972527	0.592049
3603.265868	-99.148445	70.264755	1.410290
3603.269201	-99.908241	70.790764	0.942726
3603.272557	-100.200462	70.907654	1.936295
3603.275867	-100.258911	71.316772	1.585625
3603.279205	-100.609581	72.427231	2.111633
3603.282534	-101.194038	72.661018	2.053185
3603.285868	-101.135590	73.829926	2.579197
3603.289194	-101.953819	73.713028	3.514320
3603.292534	-102.070709	74.122147	3.923435
3603.295919	-102.713615	75.232613	3.689655
3603.299199	-102.947403	75.758614	4.332558
3603.302534	-103.707184	76.284630	4.975452
3603.307133	-104.876091	77.570427	4.566338
3603.310058	-105.343651	78.622437	5.501465
3603.313400	-105.694328	79.499123	5.618355
3603.316776	-106.337227	80.200470	5.092342
3603.319649	-106.804787	80.784920	5.326126
3603.322980	-107.155464	81.953827	5.676796
3603.326317	-108.032143	81.953827	6.553478
3603.329682	-108.616592	83.531845	7.605495
3603.332529	-110.136177	84.233192	7.605495
3603.335861	-110.428406	84.934532	8.949734
3603.339193	-111.188187	86.220337	8.774403
3603.342527	-112.006424	87.213905	9.534187
3603.345899	-112.824669	88.558151	10.703102
3603.349199	-114.227356	89.551720	10.878433
3603.352524	-114.928696	90.428406	11.170662
3603.355865	-115.805374	91.012856	12.514900
3603.359216	-116.623604	92.123314	13.976044
3603.362525	-118.143188	93.584450	13.508476
3603.365861	-119.487427	94.519577	14.502045
3603.369193	-120.714783	95.805374	15.612511
3603.372530	-121.942139	96.448273	16.547638
3603.375858	-123.052597	98.610748	16.956749
3603.379189	-123.929276	100.130325	17.599648
3603.382521	-125.331963	101.357681	18.242546
3603.385858	-126.851547	102.877266	18.943893
3603.389203	-128.195786	104.455292	20.346588
3603.392517	-129.832260	106.617767	21.223259
3603.395856	-130.825836	108.488022	22.333725
3603.399210	-132.345413	109.715363	23.736412
3603.403784	-135.150787	113.514313	26.600235
3603.406702	-135.852127	115.618347	27.360023
3603.410040	-137.956161	117.780823	28.762711
3603.413400	-139.767975	119.651077	30.574524
3603.416726	-141.112213	121.638222	31.509644
3603.419674	-143.391586	124.268265	34.607246
3603.422974	-145.203384	126.255402	35.893044
3603.426308	-145.904724	128.300995	37.295738
3603.429204	-149.002335	130.697250	40.510231
3603.432531	-150.171249	133.794846	41.211571
3603.435848	-151.924591	135.548218	43.724724
3603.439187	-153.736420	138.353592	44.309174
3603.442515	-155.665100	140.808289	46.705437
3603.445859	-157.593796	143.438339	48.049683
3603.449184	-161.100525	146.477493	50.445938
3603.452515	-162.444763	149.341324	53.017532
3603.455849	-165.425476	151.679138	55.647575
3603.459179	-167.237274	155.010513	57.634712
3603.462513	-168.815308	158.225006	60.849213
3603.465847	-171.094681	161.030380	62.777901
3603.469178	-174.484497	164.127991	65.875511
3603.472513	-176.880768	167.342499	69.557571
3603.475853	-178.751022	171.082993	72.830513
3603.479184	-181.147278	174.355927	74.759216
3603.482514	-184.420212	178.037979	77.856812
3603.485851	-186.348907	181.544708	81.480423
3603.489181	-188.745178	185.109879	85.630035
3603.492516	-191.784332	188.850372	89.078323
3603.495845	-194.180603	192.999985	92.526596
3603.500100	-200.142014	201.533020	101.118073
3603.503365	-203.181168	206.033325	106.904144
3603.506728	-205.402115	210.182922	111.170670
3603.510030	-209.259491	215.092346	115.904739
3603.513378	-212.006424	220.001740	120.872589
3603.516272	-214.110474	225.437164	126.015778
3603.519627	-217.792511	229.762115	132.912323
3603.522954	-220.247223	234.613083	138.172409
3603.526291	-223.227936	239.814728	143.841614
3603.529178	-225.799530	245.308594	150.445923
3603.532511	-228.429581	251.153137	156.991837
3603.535839	-231.410294	257.406799	164.414368
3603.539178	-234.215668	263.075989	171.077148
3603.542505	-237.313263	269.212769	178.616608
3603.545844	-239.826416	275.407959	186.448273
3603.549203	-242.690231	281.252502	193.461716
3603.552510	-245.144943	287.856842	201.760956
3603.555838	-246.898300	294.636475	210.177109
3603.559176	-248.710114	301.708374	219.762131
3603.562506	-250.697250	307.845123	228.645828
3603.565836	-254.145523	314.624786	238.347763
3603.569170	-257.009338	321.579773	248.984818
3603.572501	-257.769135	329.236145	258.686707
3603.575836	-260.983643	336.366486	269.674438
3603.579176	-261.743439	343.379913	279.960815
3603.582505	-263.789001	351.503815	292.000610
3603.585832	-264.431915	358.517242	303.572754
3603.589165	-265.717712	364.537140	316.138550
3603.592510	-266.886627	372.076569	327.301575
3603.595860	-267.704834	379.966705	355.705994
3603.600022	-268.990631	394.052002	366.810669
3603.603352	-268.172394	400.831696	381.188171
3603.606690	-267.529510	408.488037	395.624207
3603.610056	-267.412628	414.566376	409.767944
3603.612927	-265.717712	423.099365	426.249573
3603.616268	-265.308594	429.294586	441.503784
3603.619618	-264.431915	437.710693	457.517822
3603.622957	-261.275879	443.905914	475.051453
3603.625832	-258.821167	449.516663	491.182373
3603.629235	-255.665115	456.763885	507.547058
3603.632494	-251.807709	462.549957	525.840454
3603.635855	-247.658081	467.517853	544.542969
3603.639169	-243.157791	473.420807	562.953247
3603.642503	-237.430145	477.278229	579.610168
3603.645828	-231.994751	483.473419	599.014038
3603.649163	-224.572174	490.194641	619.060791
3603.652498	-217.675613	493.759827	636.243713
3603.655831	-208.967255	498.961426	653.601990
3603.659162	-199.148453	501.416138	673.531860
3603.662493	-189.914078	504.338409	693.052612
3603.665833	-179.277023	505.974915	710.118652
3603.669167	-167.763290	508.488037	730.165466
3603.672528	-155.898880	509.656952	748.575745
3603.675825	-143.566925	509.832275	767.044434
3603.679163	-130.066040	510.124481	784.753357
3603.682490	-115.513145	507.786682	802.637634
3603.685826	-100.434242	507.026886	824.379333
3603.689159	-84.361771	503.753937	839.399780
3603.692490	-68.406197	502.000610	859.095886
3603.696743	-33.806545	493.818237	887.149658
3603.700010	-16.097605	488.558197	901.936279
3603.703340	3.247808	480.901794	917.424377
3603.706663	21.658092	475.232635	932.503296
3603.709591	40.711281	467.459381	945.419678
3603.712922	60.115135	458.049713	954.186523
3603.716288	80.454124	449.049133	965.349548
3603.719605	100.968445	439.873199	977.330811
3603.722492	121.833435	428.184113	985.396240
3603.725826	141.821747	418.248413	993.578613
3603.729158	162.043839	406.383972	1000.358276
3603.732495	183.201050	393.993591	1007.254883
3603.735821	203.773804	381.427826	1010.177124
3603.739154	224.112793	368.920532	1014.268311
3603.742483	244.977783	354.893646	1016.781372
3603.745823	264.732300	341.684998	1018.710083
3603.749152	284.603729	326.606110	1016.547607
3603.752485	304.767395	312.754547	1017.599609
3603.755817	322.943909	297.909424	1013.742310
3603.759189	341.587982	284.116333	1009.242065
3603.762486	360.816467	269.037415	1003.397461
3603.765820	378.466980	253.958511	1000.299805
3603.769154	396.234375	240.282288	990.188721
3603.772481	412.774414	225.320282	981.772705
3603.775821	427.093506	210.592056	971.135620
3603.779156	442.873779	195.863815	957.167175
3603.782481	456.257721	181.895386	946.354797
3603.785815	469.174133	167.810059	931.568115
